# dimensionless total lensed [l(l+1)/2pi] C_l's
# for l=2 to 3000, i.e. number of multipoles equal to 2999
#
# -> if you prefer output in CAMB/HealPix/LensPix units/order, set 'format' to 'camb' in input file
# -> if you don't want to see such a header, set 'headers' to 'no' in input file
# -> for CMB lensing (phi), these are C_l^phi-phi for the lensing potential.
#    Remember the conversion factors:
#    C_l^dd (deflection) = l(l+1) C_l^phi-phi
#    C_l^gg (shear/convergence) = 1/4 (l(l+1))^2 C_l^phi-phi
#
# 1:l     2:TT                     3:EE                     4:TE                     5:BB                     6:phiphi                 7:TPhi                   8:Ephi               
    2       1.319699901978e-10       6.355447230111e-15       4.022595081871e-13       2.186033697525e-19       7.877921151317e-09       4.619999131214e-10      -2.173375286745e-12 
    3       1.248724403710e-10       9.990749584403e-15       4.965149692755e-13       4.374201651573e-19       4.889607022064e-09       3.299262607809e-10      -1.855653328233e-12 
    4       1.179345566968e-10       1.071836734752e-14       5.027208512547e-13       7.294996009563e-19       3.421988750068e-09       2.512898784288e-10      -1.414363171131e-12 
    5       1.126162569692e-10       8.992540821016e-15       4.597200391526e-13       1.095103529720e-18       2.564733533459e-09       1.994786524517e-10      -9.820786881282e-13 
    6       1.088607007228e-10       6.222761873872e-15       3.940655290457e-13       1.534540549619e-18       2.009529791568e-09       1.628946560115e-10      -6.053995858224e-13 
    7       1.063713762995e-10       3.706040179195e-15       3.236290237851e-13       2.048154727788e-18       1.624751748915e-09       1.358355222639e-10      -3.056369302919e-13 
    8       1.049594394118e-10       2.069326793412e-15       2.587376800059e-13       2.636313202280e-18       1.344504180232e-09       1.152006273649e-10      -8.908858312558e-14 
    9       1.042897958214e-10       1.295809068306e-15       2.052107265197e-13       3.299393198385e-18       1.132938142298e-09       9.909766098091e-11       4.817706045937e-14 
   10       1.042332535435e-10       1.042228661060e-15       1.656390848260e-13       4.037769020391e-18       9.689784081567e-10       8.625320024442e-11       1.172997312183e-13 
   11       1.046380305857e-10       9.620551835439e-16       1.400682554789e-13       4.851799581033e-18       8.198970004153e-10       7.608851341739e-11       1.335048353431e-13 
   12       1.053674688605e-10       8.718225669704e-16       1.269116865579e-13       5.741817007466e-18       7.171931384312e-10       6.723448055330e-11       1.143840745312e-13 
   13       1.064015567416e-10       7.493432439407e-16       1.235582751816e-13       6.708116815818e-18       6.327514694699e-10       6.004392085307e-11       7.614270388159e-14 
   14       1.076701218408e-10       6.452763845219e-16       1.269429855305e-13       7.750950077970e-18       5.624097372129e-10       5.405948047914e-11       3.209737388518e-14 
   15       1.090931216402e-10       5.995816785753e-16       1.341668635666e-13       8.870517917146e-18       5.031314197309e-10       4.881419390138e-11      -7.927960506959e-15 
   16       1.106577300127e-10       6.098881938057e-16       1.428804507593e-13       1.006696856681e-17       4.526732394830e-10       4.429418683023e-11      -3.748091108025e-14 
   17       1.123350923289e-10       6.465099102723e-16       1.515094084718e-13       1.134039711455e-17       4.093437767312e-10       4.037371912049e-11      -5.409772600128e-14 
   18       1.141290288509e-10       6.810345492466e-16       1.591845942872e-13       1.269084658249e-17       3.717021615827e-10       3.697316149608e-11      -5.837746937207e-14 
   19       1.160347701387e-10       7.127880730563e-16       1.657360300086e-13       1.411831968790e-17       3.391599423211e-10       3.401944122627e-11      -5.270945516998e-14 
   20       1.179903408863e-10       7.518715123277e-16       1.712719831071e-13       1.562277148573e-17       3.104765837013e-10       3.135297259951e-11      -4.108680874909e-14 
   21       1.200102869899e-10       8.131490314092e-16       1.762672199018e-13       1.720413815984e-17       2.852082347378e-10       2.894675463078e-11      -2.699410985025e-14 
   22       1.221037380061e-10       9.119479513652e-16       1.813716594902e-13       1.886232790067e-17       2.627556793642e-10       2.678404622751e-11      -1.411025956395e-14 
   23       1.242638350408e-10       1.047459714184e-15       1.869725110049e-13       2.059725321008e-17       2.428144600523e-10       2.486564985452e-11      -4.473284368104e-15 
   24       1.264597655866e-10       1.212406924476e-15       1.933401415593e-13       2.240882176695e-17       2.249280908123e-10       2.317025729239e-11       5.885349269116e-16 
   25       1.286923624215e-10       1.402717798810e-15       2.004989084240e-13       2.429697173554e-17       2.088886634754e-10       2.166006591461e-11       1.203392656699e-15 
   26       1.309598329731e-10       1.615113616239e-15       2.082931436687e-13       2.626166096995e-17       1.944082655150e-10       2.027863963279e-11      -1.715083435365e-15 
   27       1.332694908063e-10       1.849824529829e-15       2.162859627951e-13       2.830289637621e-17       1.813157264569e-10       1.901240723708e-11      -6.811270537421e-15 
   28       1.356219215338e-10       2.107661781199e-15       2.239052543429e-13       3.042072654494e-17       1.693880866695e-10       1.785219773897e-11      -1.244533105607e-14 
   29       1.380214018672e-10       2.387320813724e-15       2.307694423141e-13       3.261526899786e-17       1.585654325431e-10       1.679409132864e-11      -1.757750166290e-14 
   30       1.404609536407e-10       2.686270548582e-15       2.364994390441e-13       3.488669752042e-17       1.487322116728e-10       1.582535891368e-11      -2.118869436931e-14 
   31       1.429239944491e-10       3.002323730485e-15       2.407189054415e-13       3.723523977933e-17       1.396888128427e-10       1.492573358616e-11      -2.233268896786e-14 
   32       1.454144781731e-10       3.337935805389e-15       2.433364171524e-13       3.966118140082e-17       1.313893576449e-10       1.409424202265e-11      -2.118399801858e-14 
   33       1.479356328216e-10       3.697593853618e-15       2.443716850277e-13       4.216487265631e-17       1.237761421128e-10       1.333088665700e-11      -1.840209290413e-14 
   34       1.504840306412e-10       4.085972972342e-15       2.438958436877e-13       4.474672048736e-17       1.167437519226e-10       1.263040983302e-11      -1.479567291467e-14 
   35       1.530602602689e-10       4.505128400159e-15       2.420648207774e-13       4.740714538976e-17       1.102565845014e-10       1.198721843942e-11      -1.103128995563e-14 
   36       1.556603452149e-10       4.956345929343e-15       2.391047711321e-13       5.014661704160e-17       1.042628398683e-10       1.139115565462e-11      -7.843712776008e-15 
   37       1.582770807781e-10       5.440740824591e-15       2.352398603200e-13       5.296563625604e-17       9.868483874031e-11       1.082977664143e-11      -5.930761411567e-15 
   38       1.609173058577e-10       5.958794326609e-15       2.304594240903e-13       5.586461987229e-17       9.350841399917e-11       1.030255078010e-11      -5.294089946344e-15 
   39       1.635893136508e-10       6.510642125915e-15       2.246749798862e-13       5.884398168177e-17       8.871741888837e-11       9.810783978056e-12      -5.679801876463e-15 
   40       1.662976466278e-10       7.096176883875e-15       2.177808328501e-13       6.190416487736e-17       8.426653589291e-11       9.353545099017e-12      -6.747090719899e-15 
   41       1.690430302812e-10       7.715239439775e-15       2.096527993067e-13       6.504559542122e-17       8.009711539525e-11       8.928242097768e-12      -8.111747393456e-15 
   42       1.718232432244e-10       8.368307731424e-15       2.001471512124e-13       6.826852087833e-17       7.619701372429e-11       8.533086243912e-12      -9.508481069963e-15 
   43       1.746317638009e-10       9.056003827487e-15       1.890990358894e-13       7.157312122740e-17       7.255594868071e-11       8.165072822463e-12      -1.067110131930e-14 
   44       1.774569845094e-10       9.778902780270e-15       1.763210297557e-13       7.495955021661e-17       6.914753690992e-11       7.819106798008e-12      -1.128475040650e-14 
   45       1.802870198906e-10       1.053753653698e-14       1.616480434999e-13       7.842790095751e-17       6.593873880645e-11       7.489613545973e-12      -1.108172489850e-14 
   46       1.831268541749e-10       1.133241297528e-14       1.450912133804e-13       8.197809531153e-17       6.292458177202e-11       7.176317656767e-12      -1.016945602186e-14 
   47       1.859855910775e-10       1.216399829438e-14       1.267277313913e-13       8.560995791856e-17       6.010163686351e-11       6.879922967791e-12      -8.795995458377e-15 
   48       1.888715386827e-10       1.303270900925e-14       1.066598758082e-13       8.932324183779e-17       5.745754584766e-11       6.600439099475e-12      -7.262909568294e-15 
   49       1.917920824398e-10       1.393890981341e-14       8.501633085176e-14       9.311762461845e-17       5.497035683758e-11       6.337125299320e-12      -5.928256541583e-15 
   50       1.947525437976e-10       1.488292816409e-14       6.191715567858e-14       9.699271993793e-17       5.261514838621e-11       6.088820972119e-12      -5.119238142871e-15 
   51       1.977526855236e-10       1.586510766338e-14       3.735441980594e-14       1.009481253568e-16       5.038756279945e-11       5.855173322073e-12      -4.835296513655e-15 
   52       2.007890382578e-10       1.688576547247e-14       1.128144864344e-14       1.049833807343e-16       4.828551228191e-11       5.635645871240e-12      -4.969572541741e-15 
   53       2.038556613717e-10       1.794517553743e-14      -1.635403931079e-14       1.090979506727e-16       4.630213503012e-11       5.429123839457e-12      -5.390944309358e-15 
   54       2.069439682288e-10       1.904356723896e-14      -4.561032342543e-14       1.132912213207e-16       4.442547385523e-11       5.233876185379e-12      -5.942753637072e-15 
   55       2.100456771788e-10       2.018109150364e-14      -7.654381953942e-14       1.175625797075e-16       4.264212815589e-11       5.048029020565e-12      -6.474851836266e-15 
   56       2.131629233226e-10       2.135771237255e-14      -1.091823131774e-13       1.219116821472e-16       4.095000847489e-11       4.871210532709e-12      -6.951976739407e-15 
   57       2.163003526569e-10       2.257328613084e-14      -1.435457616791e-13       1.263382469127e-16       3.934818753069e-11       4.703248208560e-12      -7.370068292398e-15 
   58       2.194621646206e-10       2.382758892515e-14      -1.796540318920e-13       1.308419775649e-16       3.783304152667e-11       4.543675620131e-12      -7.725332348532e-15 
   59       2.226520591370e-10       2.512031414557e-14      -2.175269696059e-13       1.354225629711e-16       3.639808357967e-11       4.391714389370e-12      -8.014265363386e-15 
   60       2.258731836568e-10       2.645106980767e-14      -2.571844689880e-13       1.400796773243e-16       3.503379714863e-11       4.246256152826e-12      -8.233679089721e-15 
   61       2.291280065777e-10       2.781945268246e-14      -2.986439963189e-13       1.448130689098e-16       3.373028086738e-11       4.106186683095e-12      -8.383312921743e-15 
   62       2.324180241102e-10       2.922529605311e-14      -3.419123546041e-13       1.496228496472e-16       3.248625360321e-11       3.971484069849e-12      -8.474300265800e-15 
   63       2.357438933413e-10       3.066847317724e-14      -3.869921852420e-13       1.545092708686e-16       3.130178429526e-11       3.842336155118e-12      -8.522655007529e-15 
   64       2.391054458525e-10       3.214882526703e-14      -4.338843394936e-13       1.594726430830e-16       3.017558307690e-11       3.718813091252e-12      -8.546956238269e-15 
   65       2.425016324262e-10       3.366616130628e-14      -4.825878671440e-13       1.645133388120e-16       2.910492390809e-11       3.600860161962e-12      -8.568455054112e-15 
   66       2.459304677524e-10       3.522025786765e-14      -5.331000051649e-13       1.696317954234e-16       2.808556720767e-11       3.488290603363e-12      -8.611181354958e-15 
   67       2.493889751349e-10       3.681085892970e-14      -5.854161663765e-13       1.748285179666e-16       2.711168248576e-11       3.380778425020e-12      -8.702050643572e-15 
   68       2.528742726528e-10       3.843757786503e-14      -6.395262823113e-13       1.801040309837e-16       2.617740585036e-11       3.277959198837e-12      -8.863607751573e-15 
   69       2.563872108081e-10       4.009958075149e-14      -6.954029966493e-13       1.854587162682e-16       2.528205193894e-11       3.179772187825e-12      -9.090311931520e-15 
   70       2.599293760166e-10       4.179583826817e-14      -7.530110481021e-13       1.908929471734e-16       2.442582392706e-11       3.086174963564e-12      -9.367616280291e-15 
   71       2.635019887368e-10       4.352521521001e-14      -8.123106018333e-13       1.964071382292e-16       2.360823717754e-11       2.997037233710e-12      -9.678825591065e-15 
   72       2.671058773706e-10       4.528646780296e-14      -8.732571448781e-13       2.020017466715e-16       2.282808368541e-11       2.912136424364e-12      -1.000501483848e-14 
   73       2.707414521623e-10       4.707824101908e-14      -9.358013815620e-13       2.076772739725e-16       2.208339652290e-11       2.831153262443e-12      -1.032494766382e-14 
   74       2.744086790987e-10       4.889906589170e-14      -9.998891289200e-13       2.134342673698e-16       2.137141428444e-11       2.753667358048e-12      -1.061499486013e-14 
   75       2.781070538087e-10       5.074735683051e-14      -1.065461212116e-12       2.192733213964e-16       2.068854553161e-11       2.679152786835e-12      -1.084905285746e-14 
   76       2.818360427878e-10       5.262155389351e-14      -1.132463580507e-12       2.251949429524e-16       2.003126018895e-11       2.607107309384e-12      -1.100437408719e-14 
   77       2.855965576560e-10       5.452058548986e-14      -1.200880016722e-12       2.311991147322e-16       1.939902998896e-11       2.537476998663e-12      -1.108046571109e-14 
   78       2.893897035680e-10       5.644348556726e-14      -1.270705229950e-12       2.372856545951e-16       1.879186212630e-11       2.470301379242e-12      -1.108350508207e-14 
   79       2.932163194881e-10       5.838925642342e-14      -1.341935267747e-12       2.434543437135e-16       1.820940359641e-11       2.405585009506e-12      -1.102077266818e-14 
   80       2.970769616724e-10       6.035686899358e-14      -1.414567621035e-12       2.497049253038e-16       1.765092464833e-11       2.343295804363e-12      -1.090069176558e-14 
   81       3.009718871521e-10       6.234526313813e-14      -1.488601329108e-12       2.560371033579e-16       1.711530223756e-11       2.283363357945e-12      -1.073286821163e-14 
   82       3.049010372155e-10       6.435334793021e-14      -1.564037084631e-12       2.624505413753e-16       1.660100347894e-11       2.225677266315e-12      -1.052813009792e-14 
   83       3.088640208906e-10       6.638000194323e-14      -1.640877338640e-12       2.689448610942e-16       1.610606909950e-11       2.170085450171e-12      -1.029856748327e-14 
   84       3.128603739763e-10       6.842401791864e-14      -1.719115490983e-12       2.755197027818e-16       1.562858941790e-11       2.116432740245e-12      -1.005558718494e-14 
   85       3.168904216539e-10       7.048392559960e-14      -1.798701172654e-12       2.821749203681e-16       1.516825919167e-11       2.064687657184e-12      -9.803619645528e-15 
   86       3.209545292594e-10       7.255813991760e-14      -1.879569373756e-12       2.889104164861e-16       1.472505139080e-11       2.014833671569e-12      -9.545436759123e-15 
   87       3.250528277383e-10       7.464501336326e-14      -1.961650769066e-12       2.957260835583e-16       1.429873944155e-11       1.966829824048e-12      -9.284050294088e-15 
   88       3.291852017598e-10       7.674283533912e-14      -2.044871639597e-12       3.026218035635e-16       1.388888895703e-11       1.920609724722e-12      -9.022718246070e-15 
   89       3.333512778301e-10       7.884983151248e-14      -2.129153794161e-12       3.095974478022e-16       1.349484946788e-11       1.876080552534e-12      -8.764951191012e-15 
   90       3.375504124062e-10       8.096416316812e-14      -2.214414490932e-12       3.166528766633e-16       1.311574615283e-11       1.833122054658e-12      -8.514518638152e-15 
   91       3.417816800096e-10       8.308392656115e-14      -2.300566359010e-12       3.237879393900e-16       1.275047156934e-11       1.791585545888e-12      -8.275455383035e-15 
   92       3.460438613398e-10       8.520715226980e-14      -2.387517319988e-12       3.310024738458e-16       1.239767738423e-11       1.751292908025e-12      -8.052067860512e-15 
   93       3.503358120433e-10       8.733187867984e-14      -2.475178987321e-12       3.382964680706e-16       1.205609402408e-11       1.712079946035e-12      -7.848062080270e-15 
   94       3.546576582824e-10       8.945638648628e-14      -2.563493479876e-12       3.456705732505e-16       1.172556258163e-11       1.673936089011e-12      -7.663763601789e-15 
   95       3.590097598401e-10       9.157899842825e-14      -2.652410514885e-12       3.531256678250e-16       1.140614354106e-11       1.636883947980e-12      -7.498489243971e-15 
   96       3.633923389145e-10       9.369800866528e-14      -2.741879326893e-12       3.606627045321e-16       1.109779896911e-11       1.600936444777e-12      -7.351382619239e-15 
   97       3.678054734578e-10       9.581168314771e-14      -2.831848705697e-12       3.682827123954e-16       1.080038874704e-11       1.566096420310e-12      -7.221408428642e-15 
   98       3.722490905154e-10       9.791825998707e-14      -2.922267034276e-12       3.759867987110e-16       1.051366680253e-11       1.532356242827e-12      -7.107346756977e-15 
   99       3.767229595642e-10       1.000159498265e-13      -3.013082326737e-12       3.837761510343e-16       1.023727734158e-11       1.499697416181e-12      -7.007787367896e-15 
  100       3.812266858519e-10       1.021029362109e-13      -3.104242266245e-12       3.916520391673e-16       9.970751080453e-12       1.468090188100e-12      -6.921123999022e-15 
  101       3.857597037355e-10       1.041773759579e-13      -3.195694242964e-12       3.996158171453e-16       9.713501477591e-12       1.437493158451e-12      -6.845548657060e-15 
  102       3.903212700207e-10       1.062373995275e-13      -3.287385391995e-12       4.076689252242e-16       9.464820965529e-12       1.407852887508e-12      -6.779045912915e-15 
  103       3.949104573001e-10       1.082811113929e-13      -3.379262631310e-12       4.158128918672e-16       9.223877182818e-12       1.379103504216e-12      -6.719387196797e-15 
  104       3.995263537564e-10       1.103066194569e-13      -3.471270336947e-12       4.240491215603e-16       8.989901461763e-12       1.351182074752e-12      -6.664503422867e-15 
  105       4.041687076560e-10       1.123121270281e-13      -3.563342929224e-12       4.323782213358e-16       8.762791405614e-12       1.324077916323e-12      -6.613672477457e-15 
  106       4.088373579042e-10       1.142958540178e-13      -3.655411351090e-12       4.408005865526e-16       8.542583064927e-12       1.297789245648e-12      -6.566482254421e-15 
  107       4.135320310164e-10       1.162560096844e-13      -3.747405353274e-12       4.493166065818e-16       8.329264315192e-12       1.272307797635e-12      -6.522465121460e-15 
