# dimensionless total lensed [l(l+1)/2pi] C_l's
# for l=2 to 3000, i.e. number of multipoles equal to 2999
#
# -> if you prefer output in CAMB/HealPix/LensPix units/order, set 'format' to 'camb' in input file
# -> if you don't want to see such a header, set 'headers' to 'no' in input file
# -> for CMB lensing (phi), these are C_l^phi-phi for the lensing potential.
#    Remember the conversion factors:
#    C_l^dd (deflection) = l(l+1) C_l^phi-phi
#    C_l^gg (shear/convergence) = 1/4 (l(l+1))^2 C_l^phi-phi
#
# 1:l     2:TT                     3:EE                     4:TE                     5:BB                     6:phiphi                 7:TPhi                   8:Ephi               
    2       1.320053043335e-10       6.360323642090e-15       4.023934119589e-13       6.661357274408e-20       7.871641372986e-09       4.642237288987e-10      -2.178054183941e-12 
    3       1.248738632331e-10       1.000175390849e-14       4.977311278297e-13       1.334223944980e-19       4.864412919109e-09       3.309932635867e-10      -1.858831941902e-12 
    4       1.178945846008e-10       1.072666232854e-14       5.043580361834e-13       2.227966740234e-19       3.383850473984e-09       2.519971117733e-10      -1.417053314008e-12 
    5       1.125209827031e-10       8.995382632659e-15       4.614940919821e-13       3.349751733517e-19       2.526120654263e-09       1.999799341688e-10      -9.843303609438e-13 
    6       1.087054030176e-10       6.222701252994e-15       3.957996734051e-13       4.702385780170e-19       1.973627374126e-09       1.632395802016e-10      -6.073656496692e-13 
    7       1.061549245257e-10       3.704319018432e-15       3.251868895443e-13       6.288988023196e-19       1.592334420679e-09       1.360578526493e-10      -3.075739898415e-13 
    8       1.046761926742e-10       2.065037191192e-15       2.600580087757e-13       8.112872403520e-19       1.315716974721e-09       1.153143680287e-10      -9.121378197058e-14 
    9       1.039329909498e-10       1.286866981038e-15       2.062897434795e-13       1.017742474811e-18       1.107334663395e-09       9.911403765767e-11       4.572064376576e-14 
   10       1.038104382183e-10       1.027826431459e-15       1.665383749002e-13       1.248597979499e-18       9.457062423513e-10       8.619607788955e-11       1.144790611659e-13 
   11       1.041312190557e-10       9.441297697488e-16       1.408842142122e-13       1.504170351945e-18       8.089896343747e-10       7.630192699159e-11       1.304742855349e-13 
   12       1.047896694706e-10       8.544133920210e-16       1.277253365579e-13       1.784748589643e-18       7.069192801736e-10       6.735961491025e-11       1.111776004934e-13 
   13       1.057274073007e-10       7.364495743348e-16       1.244822739905e-13       2.090584877956e-18       6.230265294904e-10       6.011994298822e-11       7.304545255071e-14 
   14       1.069042353993e-10       6.388925954385e-16       1.280669408582e-13       2.421887291618e-18       5.531654984523e-10       5.405175669652e-11       2.925273396444e-14 
   15       1.082394303045e-10       5.992706406999e-16       1.355179224329e-13       2.778814727777e-18       4.943116673918e-10       4.878276001786e-11      -1.028996016660e-14 
   16       1.097039058355e-10       6.137050568173e-16       1.445224817688e-13       3.161474290216e-18       4.442333441804e-10       4.424516069704e-11      -3.925542577154e-14 
   17       1.112826533668e-10       6.525320751310e-16       1.534599676066e-13       3.569921235927e-18       4.012466913961e-10       4.030528792019e-11      -5.525156427560e-14 
   18       1.129798918898e-10       6.887358198148e-16       1.614478006031e-13       4.004160188241e-18       3.639209203219e-10       3.688266300457e-11      -5.894608146626e-14 
   19       1.147839518990e-10       7.227518798274e-16       1.683083041890e-13       4.464156550230e-18       3.316587297236e-10       3.390674100412e-11      -5.279656983685e-14 
   20       1.166260992073e-10       7.656235898865e-16       1.741415549930e-13       4.949829608792e-18       3.032362332390e-10       3.122455801315e-11      -4.085894842872e-14 
   21       1.185241637785e-10       8.321081726571e-16       1.794409776616e-13       5.461080158001e-18       2.782107376502e-10       2.880705414586e-11      -2.665043258446e-14 
   22       1.204935605887e-10       9.369925267721e-16       1.848765149306e-13       5.997781915071e-18       2.559835744246e-10       2.663220651548e-11      -1.385393431419e-14 
   23       1.225257423049e-10       1.079078020103e-15       1.907932884522e-13       6.559812350681e-18       2.362512510095e-10       2.469907090153e-11      -4.447638109493e-15 
   24       1.245876137286e-10       1.250820021810e-15       1.974031172782e-13       7.147044097253e-18       2.185611805552e-10       2.298714617792e-11       3.327108644363e-16 
   25       1.266901440399e-10       1.448518308133e-15       2.047325718357e-13       7.759378432776e-18       2.027060817973e-10       2.146647654828e-11       6.773361500865e-16 
   26       1.288422638827e-10       1.669404517464e-15       2.126478795756e-13       8.396735169677e-18       1.883995924379e-10       2.008810786587e-11      -2.446923435332e-15 
   27       1.310375398076e-10       1.913525088076e-15       2.207132312945e-13       9.059080346051e-18       1.754711729331e-10       1.882749026448e-11      -7.665256451166e-15 
   28       1.332570616156e-10       2.181320587245e-15       2.283525729285e-13       9.746419272487e-18       1.636993974088e-10       1.766057137453e-11      -1.333238916094e-14 
   29       1.355081580318e-10       2.471522177528e-15       2.351848275949e-13       1.045882156810e-17       1.530241182262e-10       1.658790558845e-11      -1.841427171825e-14 
   30       1.377960576957e-10       2.781790318052e-15       2.408342607028e-13       1.119640982801e-17       1.433304893878e-10       1.560940816093e-11      -2.190553171673e-14 
   31       1.401162455503e-10       3.110149142616e-15       2.449305350354e-13       1.195935714709e-17       1.344208238534e-10       1.471643055203e-11      -2.288154677794e-14 
   32       1.424711463625e-10       3.459168201682e-15       2.473922542176e-13       1.274788913618e-17       1.262491252333e-10       1.390226879083e-11      -2.154978692961e-14 
   33       1.448571857888e-10       3.833426969444e-15       2.482527131591e-13       1.356229147985e-17       1.187578416452e-10       1.315381376880e-11      -1.861306658968e-14 
   34       1.472641083989e-10       4.237670851986e-15       2.475956040602e-13       1.440290222447e-17       1.118424751151e-10       1.245354209333e-11      -1.492207185624e-14 
   35       1.496923156467e-10       4.673895071095e-15       2.455728780457e-13       1.527006863518e-17       1.054674128292e-10       1.179924807930e-11      -1.114379816508e-14 
   36       1.521399435777e-10       5.143262465986e-15       2.424001034843e-13       1.616418240510e-17       9.958118799907e-11       1.119029675777e-11      -7.997815207248e-15 
   37       1.546019931177e-10       5.646757801569e-15       2.382905384875e-13       1.708566233697e-17       9.410691404702e-11       1.062357018266e-11      -6.163025490179e-15 
   38       1.570859039390e-10       6.184825190182e-15       2.332305562869e-13       1.803484258804e-17       8.903024489450e-11       1.009874918935e-11      -5.624489616151e-15 
   39       1.596001292364e-10       6.757587488815e-15       2.271310040420e-13       1.901205101028e-17       8.433495077316e-11       9.614251162660e-12      -6.109451865507e-15 
   40       1.621493870393e-10       7.364921781122e-15       2.198855980443e-13       2.001764048248e-17       7.997617679846e-11       9.165478456016e-12      -7.254020259140e-15 
   41       1.647345397388e-10       8.006657936823e-15       2.113701407923e-13       2.105194415589e-17       7.589600322657e-11       8.746321848086e-12      -8.652728459714e-15 
   42       1.673532771153e-10       8.683292494115e-15       2.014431344177e-13       2.211512106688e-17       7.208221427065e-11       8.354893819945e-12      -1.004202908755e-14 
   43       1.699988913469e-10       9.395478837749e-15       1.899430782864e-13       2.320726208799e-17       6.852446233511e-11       7.989217549945e-12      -1.116574873551e-14 
   44       1.726595392706e-10       1.014382987620e-14       1.766866133668e-13       2.432842939599e-17       6.519663452489e-11       7.645480930962e-12      -1.172176086791e-14 
   45       1.753231237924e-10       1.092891081915e-14       1.615120907372e-13       2.547862456740e-17       6.206611287312e-11       7.319319044971e-12      -1.145591137150e-14 
   46       1.779946941644e-10       1.175121967887e-14       1.444288925517e-13       2.665768642972e-17       5.912780864473e-11       7.010454054197e-12      -1.048323513467e-14 
   47       1.806835144517e-10       1.261119751526e-14       1.255105266865e-13       2.786535910671e-17       5.637817183832e-11       6.719200449232e-12      -9.058472009579e-15 
   48       1.833980808116e-10       1.350923088631e-14       1.048548685593e-13       2.910131546219e-17       5.380493090525e-11       6.445102077659e-12      -7.490900457465e-15 
   49       1.861459963833e-10       1.444564953505e-14       8.258543732971e-14       3.036515328760e-17       5.138644537925e-11       6.186871927414e-12      -6.147365333903e-15 
   50       1.889328225305e-10       1.542073322129e-14       5.881833469178e-14       3.165640862607e-17       4.909818495636e-11       5.942859353631e-12      -5.361521942447e-15 
   51       1.917585552275e-10       1.643473976937e-14       3.354952087944e-14       3.297460885383e-17       4.693574193963e-11       5.712740974335e-12      -5.125501831097e-15 
   52       1.946199759655e-10       1.748788063544e-14       6.739146998343e-15       3.431922741696e-17       4.489694624300e-11       5.496184661132e-12      -5.319786874060e-15 
   53       1.975114226325e-10       1.858031059001e-14      -2.165711344192e-14       3.568966501925e-17       4.297498028086e-11       5.292327654408e-12      -5.798325405507e-15 
   54       2.004246162304e-10       1.971212583532e-14      -5.168840420502e-14       3.708524661611e-17       4.115806695996e-11       5.099741167572e-12      -6.387146652717e-15 
   55       2.033515286591e-10       2.088334846797e-14      -8.340316563365e-14       3.850529969246e-17       3.943302995823e-11       4.916830344631e-12      -6.921081140965e-15 
   56       2.062942173107e-10       2.209387966027e-14      -1.168301883768e-13       3.994941875496e-17       3.779772506056e-11       4.743231572695e-12      -7.367778415539e-15 
   57       2.092571300810e-10       2.334353155047e-14      -1.519934479730e-13       4.141726127994e-17       3.625115052708e-11       4.578700293441e-12      -7.732071055119e-15 
   58       2.122442247473e-10       2.463203751621e-14      -1.889176617804e-13       4.290847234339e-17       3.478968774419e-11       4.422688029800e-12      -8.020664892387e-15 
   59       2.152589141687e-10       2.595904975983e-14      -2.276284003276e-13       4.442268478182e-17       3.340694008477e-11       4.274323952009e-12      -8.242238095423e-15 
   60       2.183040114867e-10       2.732413689367e-14      -2.681521986650e-13       4.595951935304e-17       3.209357176855e-11       4.132396443676e-12      -8.407540249082e-15 
   61       2.213817092125e-10       2.872684864313e-14      -3.105116154109e-13       4.751866982369e-17       3.083987899459e-11       3.995698824300e-12      -8.528625830322e-15 
   62       2.244936349793e-10       3.016693238984e-14      -3.547088619917e-13       4.910018018604e-17       2.964454228002e-11       3.864198901193e-12      -8.616129427174e-15 
   63       2.276407111182e-10       3.164416117018e-14      -4.007386796805e-13       5.070423023400e-17       2.850756167301e-11       3.738100419399e-12      -8.681551951696e-15 
   64       2.308230692150e-10       3.315827056719e-14      -4.485930196640e-13       5.233105892616e-17       2.742762486460e-11       3.617495327082e-12      -8.738142474589e-15 
   65       2.340399963852e-10       3.470895842547e-14      -4.982609940875e-13       5.398096724125e-17       2.640203274184e-11       3.502356895994e-12      -8.800969841563e-15 
   66       2.372898815504e-10       3.629588456604e-14      -5.497288271004e-13       5.565432103364e-17       2.542662494103e-11       3.392532841937e-12      -8.886994289697e-15 
   67       2.405701617131e-10       3.791867050129e-14      -6.029798059013e-13       5.735155388877e-17       2.449570540097e-11       3.287738445235e-12      -9.015139063796e-15 
   68       2.438783058813e-10       3.957680148545e-14      -6.579926572264e-13       5.907311692293e-17       2.360354887927e-11       3.187647082549e-12      -9.200837611086e-15 
   69       2.472151184417e-10       4.126931025638e-14      -7.147364042398e-13       6.081930998785e-17       2.274944138622e-11       3.092198501723e-12      -9.438232068628e-15 
   70       2.505820116993e-10       4.299502840495e-14      -7.731743747808e-13       6.259042123623e-17       2.193353202872e-11       3.001340939847e-12      -9.714479802535e-15 
   71       2.539800007541e-10       4.475267563648e-14      -8.332655960893e-13       6.438677862299e-17       2.115530901039e-11       2.914934929226e-12      -1.001489025494e-14 
   72       2.574096763149e-10       4.654085698784e-14      -8.949647055808e-13       6.620875140379e-17       2.041356561861e-11       2.832748909186e-12      -1.032285527081e-14 
   73       2.608711775131e-10       4.835806004454e-14      -9.582218616213e-13       6.805675163361e-17       1.970636621162e-11       2.754454837872e-12      -1.061977942474e-14 
   74       2.643641647169e-10       5.020265215782e-14      -1.022982654303e-12       6.993123566529e-17       1.903101220553e-11       2.679623804061e-12      -1.088501034774e-14 
   75       2.678877923449e-10       5.207287766176e-14      -1.089188016220e-12       7.183270564805e-17       1.838400806142e-11       2.607721638964e-12      -1.109576905409e-14 
   76       2.714412392225e-10       5.396701642699e-14      -1.156783712135e-12       7.376157738379e-17       1.776191962994e-11       2.538238753480e-12      -1.123223260523e-14 
   77       2.750254713993e-10       5.588389905336e-14      -1.225751003050e-12       7.571775276336e-17       1.716420507568e-11       2.471116684348e-12      -1.129400615051e-14 
   78       2.786417528920e-10       5.782248100563e-14      -1.296081437749e-12       7.770097172233e-17       1.659084078928e-11       2.406391719657e-12      -1.128654201590e-14 
   79       2.822911011611e-10       5.978169012828e-14      -1.367767875442e-12       7.971093774454e-17       1.604145936677e-11       2.344065964483e-12      -1.121628923945e-14 
   80       2.859742713582e-10       6.176042717093e-14      -1.440804592958e-12       8.174731662029e-17       1.551533389510e-11       2.284105705095e-12      -1.109072955097e-14 
   81       2.896917405720e-10       6.375756631376e-14      -1.515187391944e-12       8.380973520440e-17       1.501136223773e-11       2.226439773160e-12      -1.091841335166e-14 
   82       2.934436920759e-10       6.577195569298e-14      -1.590913706064e-12       8.589778017433e-17       1.452805132022e-11       2.170957909952e-12      -1.070899569378e-14 
   83       2.972299995742e-10       6.780241792622e-14      -1.667982708199e-12       8.801099678827e-17       1.406350141580e-11       2.117509130557e-12      -1.047327226028e-14 
   84       3.010504250528e-10       6.984767762086e-14      -1.746384338330e-12       9.014895074241e-17       1.361586154376e-11       2.065940351490e-12      -1.022157468636e-14 
   85       3.049052845244e-10       7.190612894001e-14      -1.826064062463e-12       9.231142824515e-17       1.318481682927e-11       2.016223214343e-12      -9.958572058471e-15 
   86       3.087948642798e-10       7.397603028808e-14      -1.906952440864e-12       9.449826698821e-17       1.277032005115e-11       1.968345385420e-12      -9.687669573945e-15 
   87       3.127192051133e-10       7.605557321055e-14      -1.988975610079e-12       9.670929581782e-17       1.237213477054e-11       1.922271216701e-12      -9.412580856758e-15 
   88       3.166780901594e-10       7.814288169216e-14      -2.072055203933e-12       9.894433455327e-17       1.198982753431e-11       1.877940786743e-12      -9.137336363116e-15 
   89       3.206710327295e-10       8.023601145524e-14      -2.156108274514e-12       1.012031938056e-16       1.162276007852e-11       1.835268941587e-12      -8.866291787014e-15 
   90       3.246972641485e-10       8.233294925790e-14      -2.241047213169e-12       1.034856747960e-16       1.127008153187e-11       1.794144335654e-12      -8.604136465797e-15 
   91       3.287557215917e-10       8.443161219232e-14      -2.326779671495e-12       1.057915691746e-16       1.093072061911e-11       1.754428472654e-12      -8.355901785731e-15 
   92       3.328450359215e-10       8.652984698298e-14      -2.413208482328e-12       1.081206588392e-16       1.060337786449e-11       1.715954746486e-12      -8.126969587560e-15 
   93       3.369639261831e-10       8.862552023559e-14      -2.500240392749e-12       1.104728727583e-16       1.028682954899e-11       1.678568419444e-12      -7.921917363277e-15 
   94       3.411124773812e-10       9.071680623459e-14      -2.587813937153e-12       1.128487848161e-16       9.980908810071e-12       1.642255518012e-12      -7.740836913348e-15 
   95       3.452910332869e-10       9.280194133436e-14      -2.675875629721e-12       1.152491908567e-16       9.685658370902e-12       1.607031639934e-12      -7.582474980039e-15 
   96       3.494998004084e-10       9.487913740472e-14      -2.764371567319e-12       1.176749602982e-16       9.401028464244e-12       1.572902352403e-12      -7.445339662479e-15 
   97       3.537388414108e-10       9.694658237764e-14      -2.853247471450e-12       1.201270381061e-16       9.126873315263e-12       1.539862794898e-12      -7.327692855039e-15 
   98       3.580080685341e-10       9.900244079398e-14      -2.942448730210e-12       1.226064467676e-16       8.862947624372e-12       1.507897282032e-12      -7.227542685729e-15 
   99       3.623072370127e-10       1.010448543502e-13      -3.031920440240e-12       1.251142882650e-16       8.608903050057e-12       1.476978906390e-12      -7.142635954579e-15 
  100       3.666359384942e-10       1.030719424450e-13      -3.121607448673e-12       1.276517460495e-16       8.364284691711e-12       1.447069141372e-12      -7.070450572030e-15 
  101       3.709935944578e-10       1.050818027263e-13      -3.211454395095e-12       1.302200870152e-16       8.128527572467e-12       1.418117444040e-12      -7.008187997319e-15 
  102       3.753794496337e-10       1.070725116376e-13      -3.301405753488e-12       1.328206634726e-16       7.900953122028e-12       1.390060857952e-12      -6.952765676871e-15 
  103       3.797925654219e-10       1.090421249649e-13      -3.391405874190e-12       1.354549151228e-16       7.680765659500e-12       1.362823616012e-12      -6.900809482684e-15 
  104       3.842320102795e-10       1.109887061741e-13      -3.481396510679e-12       1.381241579900e-16       7.467230062904e-12       1.336334857989e-12      -6.849294302522e-15 
  105       3.886974743495e-10       1.129104146050e-13      -3.571308929086e-12       1.408289144976e-16       7.260239686915e-12       1.310585364275e-12      -6.797580649391e-15 
  106       3.931887259767e-10       1.148054302659e-13      -3.661070806043e-12       1.435694961540e-16       7.059818962668e-12       1.285577781296e-12      -6.745640352058e-15 
  107       3.977054177902e-10       1.166719279483e-13      -3.750608662804e-12       1.463462081487e-16       6.865947554135e-12       1.261308995495e-12      -6.693432536968e-15 
