# dimensionless total [l(l+1)/2pi] C_l's
# for l=2 to 3500, i.e. number of multipoles equal to 3499
#
# -> if you prefer output in CAMB/HealPix/LensPix units/order, set 'format' to 'camb' in input file
# -> if you don't want to see such a header, set 'headers' to 'no' in input file
# -> for CMB lensing (phi), these are C_l^phi-phi for the lensing potential.
#    Remember the conversion factors:
#    C_l^dd (deflection) = l(l+1) C_l^phi-phi
#    C_l^gg (shear/convergence) = 1/4 (l(l+1))^2 C_l^phi-phi
#
# 1:l     2:TT                     3:EE                     4:TE                     5:BB                     6:phiphi                 7:TPhi                   8:Ephi               
    2       1.319216301878e-10       6.355153658876e-15       4.022569057124e-13       0.000000000000e+00       7.814403282472e-09       4.601212623951e-10      -2.173183174474e-12 
    3       1.248221621176e-10       9.990028072735e-15       4.964757933055e-13       0.000000000000e+00       4.844616141428e-09       3.282315993279e-10      -1.855335408318e-12 
    4       1.178855139912e-10       1.071703346319e-14       5.026399207136e-13       0.000000000000e+00       3.386357695142e-09       2.497764884432e-10      -1.413925963323e-12 
    5       1.125692107388e-10       8.990557133904e-15       4.596174897029e-13       0.000000000000e+00       2.535234963958e-09       1.981276334804e-10      -9.815302737733e-13 
    6       1.088153352322e-10       6.220318647159e-15       3.939829488235e-13       0.000000000000e+00       1.984456472464e-09       1.616851222974e-10      -6.047520131286e-13 
    7       1.063268216176e-10       3.703500505017e-15       3.236159010297e-13       0.000000000000e+00       1.603040576045e-09       1.347489521067e-10      -3.049040828217e-13 
    8       1.049146013667e-10       2.067050116469e-15       2.588328715058e-13       0.000000000000e+00       1.325458395409e-09       1.142211223378e-10      -8.828310039789e-14 
    9       1.042435735837e-10       1.293931658595e-15       2.054272388501e-13       0.000000000000e+00       1.116060371640e-09       9.821134734460e-11       4.904584194396e-14 
   10       1.041846350320e-10       1.040509076932e-15       1.659575121459e-13       0.000000000000e+00       9.538632501672e-10       8.544816271236e-11       1.182262705184e-13 
   11       1.045862786458e-10       9.598672145552e-16       1.404402380999e-13       0.000000000000e+00       8.071066746217e-10       7.538546388641e-11       1.344816154503e-13 
   12       1.053121526056e-10       8.683081304161e-16       1.272721839739e-13       0.000000000000e+00       7.055912062044e-10       6.659386494191e-11       1.154143401379e-13 
   13       1.063425177496e-10       7.436630270520e-16       1.238418026764e-13       0.000000000000e+00       6.221638814057e-10       5.945859369442e-11       7.722232110228e-14 
   14       1.076073778734e-10       6.368573760680e-16       1.270986759074e-13       0.000000000000e+00       5.526975521569e-10       5.352333947893e-11       3.321865590610e-14 
   15       1.090268386256e-10       5.882698187578e-16       1.341689972078e-13       0.000000000000e+00       4.941819130033e-10       4.832233381614e-11      -6.777296746742e-15 
   16       1.105882434433e-10       5.959592048109e-16       1.427321353524e-13       0.000000000000e+00       4.443936842375e-10       4.384251305191e-11      -3.631759531862e-14 
   17       1.122628256505e-10       6.305469095912e-16       1.512400089091e-13       0.000000000000e+00       4.016570224803e-10       3.995839189148e-11      -5.294137772837e-14 
   18       1.140545036475e-10       6.637302890207e-16       1.588418161474e-13       0.000000000000e+00       3.645453137588e-10       3.659056722235e-11      -5.724830520592e-14 
   19       1.159585367285e-10       6.947268780893e-16       1.653731726173e-13       0.000000000000e+00       3.324738286256e-10       3.366623685263e-11      -5.162540411926e-14 
   20       1.179129470799e-10       7.333901500924e-16       1.709396384973e-13       0.000000000000e+00       3.042162260221e-10       3.102682686485e-11      -4.006157813020e-14 
   21       1.199322743183e-10       7.943017934729e-16       1.760037405855e-13       0.000000000000e+00       2.793324576294e-10       2.864547275946e-11      -2.603564857592e-14 
   22       1.220256440732e-10       8.924707376054e-16       1.811962392226e-13       0.000000000000e+00       2.572297514990e-10       2.650560034752e-11      -1.321970138312e-14 
   23       1.241862257908e-10       1.026927920866e-15       1.868878387816e-13       0.000000000000e+00       2.376064818577e-10       2.460799840920e-11      -3.646476441392e-15 
   24       1.263832343065e-10       1.190309025839e-15       1.933322944827e-13       0.000000000000e+00       2.200115710182e-10       2.293154503305e-11       1.360153293465e-15 
   25       1.286174493702e-10       1.378588568332e-15       2.005450972696e-13       0.000000000000e+00       2.042391292309e-10       2.143873290536e-11       1.929853025436e-15 
   26       1.308869861052e-10       1.588608925033e-15       2.083656034753e-13       0.000000000000e+00       1.900046927244e-10       2.007356274721e-11      -1.024135176072e-15 
   27       1.331990528911e-10       1.820754303765e-15       2.163598507424e-13       0.000000000000e+00       1.771389787786e-10       1.882242453452e-11      -6.148589285614e-15 
   28       1.355541288032e-10       2.076006793608e-15       2.239626582123e-13       0.000000000000e+00       1.654218750929e-10       1.767606744079e-11      -1.180727208749e-14 
   29       1.379564456900e-10       2.353137606903e-15       2.307999290589e-13       0.000000000000e+00       1.547938552962e-10       1.663062024759e-11      -1.696288289816e-14 
   30       1.403990049500e-10       2.649668186852e-15       2.365021731443e-13       0.000000000000e+00       1.451407606301e-10       1.567357014785e-11      -2.059914162978e-14 
   31       1.428652144264e-10       2.963451584933e-15       2.407032820241e-13       0.000000000000e+00       1.362658092528e-10       1.478494962661e-11      -2.177267694811e-14 
   32       1.453590332915e-10       3.296904865678e-15       2.433149233533e-13       0.000000000000e+00       1.281235183582e-10       1.396379089084e-11      -2.065755723446e-14 
   33       1.478837099308e-10       3.654437172315e-15       2.443576600648e-13       0.000000000000e+00       1.206568667383e-10       1.321006026025e-11      -1.791160019644e-14 
   34       1.504358385098e-10       4.040634953968e-15       2.439024612672e-13       0.000000000000e+00       1.137619789531e-10       1.251851504391e-11      -1.434148668763e-14 
   35       1.530159822334e-10       4.457501232461e-15       2.421014558405e-13       0.000000000000e+00       1.074036278452e-10       1.188358730091e-11      -1.061141209165e-14 
   36       1.556201246311e-10       4.906273890444e-15       2.391749202363e-13       0.000000000000e+00       1.015307172777e-10       1.129519253664e-11      -7.453393950453e-15 
   37       1.582410279820e-10       5.388025347153e-15       2.353409574177e-13       0.000000000000e+00       9.606675781879e-11       1.074098822401e-11      -5.562750561867e-15 
   38       1.608855339238e-10       5.903246078105e-15       2.305871567455e-13       0.000000000000e+00       9.099766402352e-11       1.022046031701e-11      -4.941197005332e-15 
   39       1.635619560656e-10       6.452101998997e-15       2.248245379354e-13       0.000000000000e+00       8.630743903859e-11       9.734929653191e-12      -5.335936108423e-15 
   40       1.662748684718e-10       7.034525211469e-15       2.179469609777e-13       0.000000000000e+00       8.195147475668e-11       9.283513064438e-12      -6.407723664695e-15 
   41       1.690250265988e-10       7.650399494267e-15       2.098302584737e-13       0.000000000000e+00       7.787209619165e-11       8.863682174293e-12      -7.774208332432e-15 
   42       1.718101916614e-10       8.300228312738e-15       2.003325494650e-13       0.000000000000e+00       7.405728034169e-11       8.473661870092e-12      -9.171601799111e-15 
   43       1.746238096841e-10       8.984657023134e-15       1.892917476482e-13       0.000000000000e+00       7.049685137776e-11       8.110460217910e-12      -1.033535768807e-14 
   44       1.774542384057e-10       9.704287682796e-15       1.765237860645e-13       0.000000000000e+00       6.716485744572e-11       7.769013982051e-12      -1.095260759426e-14 
   45       1.802895627490e-10       1.045967362549e-14       1.618665824777e-13       0.000000000000e+00       6.402882998305e-11       7.443787440983e-12      -1.075737991928e-14 
   46       1.831347679098e-10       1.125130670275e-14       1.453306946796e-13       0.000000000000e+00       6.108382113881e-11       7.134507661595e-12      -9.856509082697e-15 
   47       1.859989713244e-10       1.207962229467e-14       1.269914780930e-13       0.000000000000e+00       5.832640663426e-11       6.841877599847e-12      -8.496607878385e-15 
   48       1.888905010660e-10       1.294499966406e-14       1.069489857887e-13       0.000000000000e+00       5.574442139778e-11       6.565915631872e-12      -6.977515918844e-15 
   49       1.918167692809e-10       1.384775946477e-14       8.532926664489e-14       0.000000000000e+00       5.331630967300e-11       6.305900125926e-12      -5.655261244342e-15 
   50       1.947831232169e-10       1.478819016591e-14       6.224986128078e-14       0.000000000000e+00       5.101761313797e-11       6.060693951197e-12      -4.855214662857e-15 
   51       1.977893242668e-10       1.576664156072e-14       3.770223682381e-14       0.000000000000e+00       4.884401921003e-11       5.829950440135e-12      -4.576891225466e-15 
   52       2.008318944281e-10       1.678345233268e-14       1.163968433742e-14       0.000000000000e+00       4.679344556478e-11       5.613138960177e-12      -4.714139771357e-15 
   53       2.039048846465e-10       1.783892225396e-14      -1.599004554091e-14       0.000000000000e+00       4.485914238511e-11       5.409156929197e-12      -5.136712311428e-15 
   54       2.069997001396e-10       1.893331105452e-14      -4.524512925068e-14       0.000000000000e+00       4.302937837576e-11       5.216292266830e-12      -5.688999413003e-15 
   55       2.101080523723e-10       2.006679817720e-14      -7.618181067468e-14       0.000000000000e+00       4.129101319932e-11       5.032691693741e-12      -6.221866976885e-15 
   56       2.132320739117e-10       2.123935292612e-14      -1.088276500170e-13       0.000000000000e+00       3.964197335085e-11       4.857987882525e-12      -6.700325295067e-15 
   57       2.163764103590e-10       2.245083007952e-14      -1.432023066215e-13       0.000000000000e+00       3.808132558810e-11       4.692010756572e-12      -7.120392225411e-15 
   58       2.195452621391e-10       2.370100358043e-14      -1.793252669582e-13       0.000000000000e+00       3.660550302145e-11       4.534299605351e-12      -7.478359739414e-15 
   59       2.227423316417e-10       2.498956388189e-14      -2.172159099902e-13       0.000000000000e+00       3.520814254743e-11       4.384085244096e-12      -7.770818971557e-15 
   60       2.259707703614e-10       2.631611529207e-14      -2.568935725407e-13       0.000000000000e+00       3.387992228227e-11       4.240272173498e-12      -7.994685268652e-15 
   61       2.292330519028e-10       2.768025134246e-14      -2.983752157811e-13       0.000000000000e+00       3.261114620882e-11       4.101759283832e-12      -8.149766103410e-15 
   62       2.325306772686e-10       2.908180666700e-14      -3.416676647443e-13       0.000000000000e+00       3.140054383096e-11       3.968526446514e-12      -8.247081697214e-15 
   63       2.358643093191e-10       3.052065720614e-14      -3.867737349547e-13       0.000000000000e+00       3.024816620800e-11       3.840761271707e-12      -8.302465000603e-15 
   64       2.392337869529e-10       3.199664699718e-14      -4.336944670619e-13       0.000000000000e+00       2.915273912862e-11       3.718535127879e-12      -8.334287272606e-15 
   65       2.426380698956e-10       3.350958799504e-14      -4.824291160935e-13       0.000000000000e+00       2.811158771141e-11       3.601796043253e-12      -8.363563813248e-15 
   66       2.460751834878e-10       3.505925989299e-14      -5.329751407075e-13       0.000000000000e+00       2.712056100542e-11       3.490361607256e-12      -8.414059696061e-15 
   67       2.495421634737e-10       3.664540994354e-14      -5.853281924452e-13       0.000000000000e+00       2.617395659072e-11       3.383911871968e-12      -8.512395500588e-15 
   68       2.530361398449e-10       3.826765476828e-14      -6.394784284294e-13       0.000000000000e+00       2.526604039832e-11       3.282088741444e-12      -8.680864934019e-15 
   69       2.565579668087e-10       3.992516308494e-14      -6.953986058847e-13       0.000000000000e+00       2.439613231483e-11       3.184833392733e-12      -8.913961381438e-15 
   70       2.601092325417e-10       4.161690807519e-14      -7.530535448626e-13       0.000000000000e+00       2.356442033904e-11       3.092104787237e-12      -9.197263105624e-15 
   71       2.636911596016e-10       4.334175706957e-14      -8.124034884520e-13       0.000000000000e+00       2.277042255797e-11       3.003774935582e-12      -9.514221301174e-15 
   72       2.673045788475e-10       4.509846886156e-14      -8.734039980024e-13       0.000000000000e+00       2.201295254593e-11       2.919624522540e-12      -9.846079430309e-15 
   73       2.709499033597e-10       4.688569102175e-14      -9.360058483463e-13       0.000000000000e+00       2.129008476348e-11       2.839338531957e-12      -1.017179255869e-14 
   74       2.746271023607e-10       4.870195721192e-14      -1.000154923023e-12       0.000000000000e+00       2.059911995642e-11       2.762501871675e-12      -1.046794669123e-14 
   75       2.783356751346e-10       5.054568449917e-14      -1.065792109500e-12       0.000000000000e+00       1.993655055481e-11       2.688594998459e-12      -1.070867810788e-14 
   76       2.820750918144e-10       5.241531542525e-14      -1.132863451874e-12       0.000000000000e+00       1.929892937143e-11       2.617121742223e-12      -1.087144350384e-14 
   77       2.858462661886e-10       5.430978006118e-14      -1.201352977982e-12       0.000000000000e+00       1.868573506753e-11       2.548029360311e-12      -1.095572348656e-14 
   78       2.896503053336e-10       5.622811372230e-14      -1.271255695922e-12       0.000000000000e+00       1.809696878326e-11       2.481357489389e-12      -1.096759904708e-14 
   79       2.934880503351e-10       5.816931996570e-14      -1.342567971495e-12       0.000000000000e+00       1.753228137595e-11       2.417111104239e-12      -1.091424200527e-14 
   80       2.973600597810e-10       6.013237087268e-14      -1.415287633759e-12       0.000000000000e+00       1.699095734204e-11       2.355258853531e-12      -1.080395432110e-14 
   81       3.012665932560e-10       6.211620733121e-14      -1.489414080595e-12       0.000000000000e+00       1.647189873896e-11       2.295731395604e-12      -1.064620740594e-14 
   82       3.052075948345e-10       6.411973931830e-14      -1.564948384264e-12       0.000000000000e+00       1.597360910699e-11       2.238419734247e-12      -1.045168143387e-14 
   83       3.091826765752e-10       6.614184618248e-14      -1.641893396972e-12       0.000000000000e+00       1.549417739117e-11       2.183173554470e-12      -1.023230465296e-14 
   84       3.131913773557e-10       6.818132104375e-14      -1.720242919267e-12       0.000000000000e+00       1.503174109570e-11       2.129839525221e-12      -9.999327980680e-15 
   85       3.172340248385e-10       7.023669278415e-14      -1.799946910858e-12       0.000000000000e+00       1.458599918589e-11       2.078387148696e-12      -9.757095935932e-15 
   86       3.213109868016e-10       7.230637492765e-14      -1.880940679212e-12       0.000000000000e+00       1.415692168101e-11       2.028800819913e-12      -9.508310333522e-15 
   87       3.254223967991e-10       7.438871825170e-14      -1.963155226833e-12       0.000000000000e+00       1.374428481585e-11       1.981040736871e-12      -9.255909384014e-15 
   88       3.295681422814e-10       7.648201013052e-14      -2.046517173004e-12       0.000000000000e+00       1.334766301691e-11       1.935041908044e-12      -9.003073984595e-15 
   89       3.337478527178e-10       7.858447387828e-14      -2.130948675529e-12       0.000000000000e+00       1.296642087865e-11       1.890713159869e-12      -8.753234009926e-15 
   90       3.379608877165e-10       8.069426809239e-14      -2.216367352478e-12       0.000000000000e+00       1.259970513966e-11       1.847936144241e-12      -8.510074603006e-15 
   91       3.422063251472e-10       8.280948599670e-14      -2.302686203927e-12       0.000000000000e+00       1.224643665890e-11       1.806564346001e-12      -8.277542466029e-15 
   92       3.464829492615e-10       8.492815478473e-14      -2.389813533705e-12       0.000000000000e+00       1.190530239192e-11       1.766422090430e-12      -8.059852151237e-15 
   93       3.507896197386e-10       8.704830947397e-14      -2.477661293048e-12       0.000000000000e+00       1.157506600602e-11       1.727347412176e-12      -7.860637685928e-15 
   94       3.551264681134e-10       8.916822860136e-14      -2.566171717019e-12       0.000000000000e+00       1.125557059303e-11       1.689330193117e-12      -7.680247826463e-15 
   95       3.594938601664e-10       9.128623292707e-14      -2.655294568156e-12       0.000000000000e+00       1.094687263115e-11       1.652393062062e-12      -7.518053748600e-15 
   96       3.638920244715e-10       9.340061444313e-14      -2.744979108368e-12       0.000000000000e+00       1.064893318230e-11       1.616548999300e-12      -7.373262099115e-15 
   97       3.683210457472e-10       9.550963673944e-14      -2.835174136275e-12       0.000000000000e+00       1.036161424224e-11       1.581800946161e-12      -7.244909554806e-15 
   98       3.727808582059e-10       9.761153536984e-14      -2.925828024565e-12       0.000000000000e+00       1.008467509068e-11       1.548141414596e-12      -7.131857381493e-15 
   99       3.772712389046e-10       9.970451821810e-14      -3.016888757338e-12       0.000000000000e+00       9.817768641406e-12       1.515552096739e-12      -7.032785993013e-15 
  100       3.817918010952e-10       1.017867658640e-13      -3.108303967458e-12       0.000000000000e+00       9.560437792404e-12       1.484003474481e-12      -6.946189510226e-15 
  101       3.863419875743e-10       1.038564319494e-13      -3.200020973903e-12       0.000000000000e+00       9.312111775954e-12       1.453454429040e-12      -6.870370320009e-15 
  102       3.909210640339e-10       1.059116435440e-13      -3.291986819110e-12       0.000000000000e+00       9.072102508767e-12       1.423851850528e-12      -6.803433634260e-15 
  103       3.955281124110e-10       1.079505015119e-13      -3.384148306329e-12       0.000000000000e+00       8.839600942095e-12       1.395130247527e-12      -6.743282048897e-15 
  104       4.001622295875e-10       1.099711099481e-13      -3.476449711979e-12       0.000000000000e+00       8.613859909408e-12       1.367227089119e-12      -6.687962480524e-15 
  105       4.048231683784e-10       1.119716682300e-13      -3.568825490334e-12       0.000000000000e+00       8.394778661114e-12       1.340132032243e-12      -6.636772070398e-15 
  106       4.095107711378e-10       1.139503921414e-13      -3.661206648388e-12       0.000000000000e+00       8.182390855126e-12       1.313843647322e-12      -6.589292223848e-15 
  107       4.142247678014e-10       1.159054865888e-13      -3.753522994502e-12       0.000000000000e+00       7.976683529358e-12       1.288354064703e-12      -6.545048023267e-15 
