# dimensionless total lensed [l(l+1)/2pi] C_l's
# for l=2 to 3000, i.e. number of multipoles equal to 2999
#
# -> if you prefer output in CAMB/HealPix/LensPix units/order, set 'format' to 'camb' in input file
# -> if you don't want to see such a header, set 'headers' to 'no' in input file
# -> for CMB lensing (phi), these are C_l^phi-phi for the lensing potential.
#    Remember the conversion factors:
#    C_l^dd (deflection) = l(l+1) C_l^phi-phi
#    C_l^gg (shear/convergence) = 1/4 (l(l+1))^2 C_l^phi-phi
#
# 1:l     2:TT                     3:EE                     4:TE                     5:BB                     6:phiphi                 7:TPhi                   8:Ephi               
    2       1.319221046066e-10       6.355362549935e-15       4.022569016716e-13       2.088911070624e-19       7.814403282472e-09       4.601212623951e-10      -2.173183174474e-12 
    3       1.248231088148e-10       9.990446062319e-15       4.964757753134e-13       4.179900531750e-19       4.844616141428e-09       3.282315993279e-10      -1.855335408318e-12 
    4       1.178870871189e-10       1.071773056472e-14       5.026398690755e-13       6.971038487673e-19       3.386357695142e-09       2.497764884432e-10      -1.413925963323e-12 
    5       1.125715617482e-10       8.991603613355e-15       4.596173722347e-13       1.046487398180e-18       2.535234963958e-09       1.981276334804e-10      -9.815302737733e-13 
    6       1.088186123256e-10       6.221785066435e-15       3.939827182348e-13       1.466441027941e-18       1.984456472464e-09       1.616851222974e-10      -6.047520131286e-13 
    7       1.063311692792e-10       3.705457753646e-15       3.236154926089e-13       1.957299460868e-18       1.603040576045e-09       1.347489521067e-10      -3.049040828217e-13 
    8       1.049201599806e-10       2.069569430507e-15       2.588322011415e-13       2.519419695249e-18       1.325458395409e-09       1.142211223378e-10      -8.828310039789e-14 
    9       1.042504791469e-10       1.297084626362e-15       2.054262014103e-13       3.153168313627e-18       1.116060371640e-09       9.821134734460e-11       4.904584194396e-14 
   10       1.041930189652e-10       1.044367631787e-15       1.659559802204e-13       3.858908770465e-18       9.538632501672e-10       8.544816271236e-11       1.182262705184e-13 
   11       1.045962677014e-10       9.645036155134e-16       1.404380611000e-13       4.636989208983e-18       8.071066746217e-10       7.538546388641e-11       1.344816154503e-13 
   12       1.053238688710e-10       8.737949320011e-16       1.272691875695e-13       5.487731334532e-18       7.055912062044e-10       6.659386494191e-11       1.154143401379e-13 
   13       1.063560787391e-10       7.500730402416e-16       1.238377885410e-13       6.411420825911e-18       6.221638814057e-10       5.945859369442e-11       7.722232110228e-14 
   14       1.076228966989e-10       6.442636225843e-16       1.270934217309e-13       7.408299698984e-18       5.526975521569e-10       5.352333947893e-11       3.321865590610e-14 
   15       1.090444242371e-10       5.967454812155e-16       1.341622569325e-13       8.478560951619e-18       4.941819130033e-10       4.832233381614e-11      -6.777296746742e-15 
   16       1.106080009229e-10       6.055775753654e-16       1.427236395810e-13       9.622345718882e-18       4.443936842375e-10       4.384251305191e-11      -3.631759531862e-14 
   17       1.122848565481e-10       6.413813397142e-16       1.512294654343e-13       1.083974305692e-17       4.016570224803e-10       3.995839189148e-11      -5.294137772837e-14 
   18       1.140789063473e-10       6.758541414898e-16       1.588289105796e-13       1.213079103404e-17       3.645453137588e-10       3.659056722235e-11      -5.724830520592e-14 
   19       1.159854067915e-10       7.082134916585e-16       1.653575689158e-13       1.349548827954e-17       3.324738286256e-10       3.366623685263e-11      -5.162540411926e-14 
   20       1.179423776547e-10       7.483127968101e-16       1.709209797644e-13       1.493378680529e-17       3.042162260221e-10       3.102682686485e-11      -4.006157813020e-14 
   21       1.199643564287e-10       8.107336638424e-16       1.759816494735e-13       1.644562022274e-17       2.793324576294e-10       2.864547275946e-11      -2.603564857592e-14 
   22       1.220604669843e-10       9.104849165142e-16       1.811703186431e-13       1.803089483621e-17       2.572297514990e-10       2.650560034752e-11      -1.321970138312e-14 
   23       1.242238772109e-10       1.046597390703e-15       1.868576722189e-13       1.968952127946e-17       2.376064818577e-10       2.460799840920e-11      -3.646476441392e-15 
   24       1.264238006681e-10       1.211706660442e-15       1.932974466150e-13       2.142140559786e-17       2.200115710182e-10       2.293154503305e-11       1.360153293465e-15 
   25       1.286610159007e-10       1.401787151079e-15       2.005051142441e-13       2.322648379637e-17       2.042391292309e-10       2.143873290536e-11       1.929853025436e-15 
   26       1.309336369938e-10       1.613681158020e-15       2.083200134916e-13       2.510471130450e-17       1.900046927244e-10       2.007356274721e-11      -1.024135176072e-15 
   27       1.332488712611e-10       1.847772832228e-15       2.163081644596e-13       2.705609168617e-17       1.771389787786e-10       1.882242453452e-11      -6.148589285614e-15 
   28       1.356071967449e-10       2.105044221849e-15       2.239043694630e-13       2.908066944537e-17       1.654218750929e-10       1.767606744079e-11      -1.180727208749e-14 
   29       1.380128440141e-10       2.384266510907e-15       2.307345157588e-13       3.117855657671e-17       1.547938552962e-10       1.663062024759e-11      -1.696288289816e-14 
   30       1.404588131323e-10       2.682961131198e-15       2.364290982556e-13       3.334992027582e-17       1.451407606301e-10       1.567357014785e-11      -2.059914162978e-14 
   31       1.429285105418e-10       2.998981129494e-15       2.406219948723e-13       3.559498058518e-17       1.362658092528e-10       1.478494962661e-11      -2.177267694811e-14 
   32       1.454258936444e-10       3.334743526751e-15       2.432248620367e-13       3.791401413047e-17       1.281235183582e-10       1.396379089084e-11      -2.065755723446e-14 
   33       1.479542088432e-10       3.694657415318e-15       2.442582533412e-13       4.030736084006e-17       1.206568667383e-10       1.321006026025e-11      -1.791160019644e-14 
   34       1.505100481400e-10       4.083309174321e-15       2.437931308412e-13       4.277541612813e-17       1.137619789531e-10       1.251851504391e-11      -1.434148668763e-14 
   35       1.530939723055e-10       4.502701649429e-15       2.419816206667e-13       4.531858839892e-17       1.074036278452e-10       1.188358730091e-11      -1.061141209165e-14 
   36       1.557019621835e-10       4.954072496918e-15       2.390439997555e-13       4.793733411264e-17       1.015307172777e-10       1.129519253664e-11      -7.453393950453e-15 
   37       1.583267771799e-10       5.438493843012e-15       2.351983753269e-13       5.063214009705e-17       9.606675781879e-11       1.074098822401e-11      -5.562750561867e-15 
   38       1.609752560885e-10       5.956455671970e-15       2.304323478838e-13       5.340341053489e-17       9.099766402352e-11       1.022046031701e-11      -4.941197005332e-15 
   39       1.636557095245e-10       6.508123292832e-15       2.246569534335e-13       5.625154639379e-17       8.630743903859e-11       9.734929653191e-12      -5.335936108423e-15 
   40       1.663727083286e-10       7.093428114998e-15       2.177660728702e-13       5.917697726770e-17       8.195147475668e-11       9.283513064438e-12      -6.407723664695e-15 
   41       1.691270046443e-10       7.712253102534e-15       2.096355653432e-13       6.218011565519e-17       7.787209619165e-11       8.863682174293e-12      -7.774208332432e-15 
   42       1.719163568063e-10       8.365100668923e-15       2.001235850194e-13       6.526119896748e-17       7.405728034169e-11       8.473661870092e-12      -9.171601799111e-15 
   43       1.747342080102e-10       9.052614951574e-15       1.890680877138e-13       6.842039813771e-17       7.049685137776e-11       8.110460217910e-12      -1.033535768807e-14 
   44       1.775689130655e-10       9.775396644970e-15       1.762850551473e-13       7.165785814784e-17       6.716485744572e-11       7.769013982051e-12      -1.095260759426e-14 
   45       1.804085540421e-10       1.053399758703e-14       1.616124602732e-13       7.497366439663e-17       6.402882998305e-11       7.443787440983e-12      -1.075737991928e-14 
   46       1.832581139679e-10       1.132890805285e-14       1.450609217278e-13       7.836773461457e-17       6.108382113881e-11       7.134507661595e-12      -9.856509082697e-15 
   47       1.861267083577e-10       1.216056171765e-14       1.267058625255e-13       8.183989117023e-17       5.832640663426e-11       6.841877599847e-12      -8.496607878385e-15 
   48       1.890226634460e-10       1.302933598931e-14       1.066474106593e-13       8.538988610303e-17       5.574442139778e-11       6.565915631872e-12      -6.977515918844e-15 
   49       1.919533896271e-10       1.393554951123e-14       8.501169753029e-14       8.901739726627e-17       5.331630967300e-11       6.305900125926e-12      -5.655261244342e-15 
   50       1.949242325540e-10       1.487948866308e-14       6.191635207101e-14       9.272203991036e-17       5.101761313797e-11       6.060693951197e-12      -4.855214662857e-15 
   51       1.979349524072e-10       1.586150133714e-14       3.735292887462e-14       9.650341408660e-17       4.884401921003e-11       5.829950440135e-12      -4.576891225466e-15 
   52       2.009820701968e-10       1.688192429995e-14       1.127481092639e-14       1.003610634438e-16       4.679344556478e-11       5.613138960177e-12      -4.714139771357e-15 
   53       2.040596360514e-10       1.794105531340e-14      -1.637015266664e-14       1.042944578568e-16       4.485914238511e-11       5.409156929197e-12      -5.136712311428e-15 
   54       2.071590545483e-10       1.903915200211e-14      -4.564003315409e-14       1.083029902964e-16       4.302937837576e-11       5.216292266830e-12      -5.688999413003e-15 
   55       2.102720365106e-10       2.017639171709e-14      -7.659096584264e-14       1.123860547304e-16       4.129101319932e-11       5.032691693741e-12      -6.221866976885e-15 
   56       2.134007132585e-10       2.135274204500e-14      -1.092504103411e-13       1.165433096602e-16       3.964197335085e-11       4.857987882525e-12      -6.700325295067e-15 
   57       2.165497290065e-10       2.256805614682e-14      -1.436379245337e-13       1.207744745695e-16       3.808132558810e-11       4.692010756572e-12      -7.120392225411e-15 
   58       2.197232828257e-10       2.382210634885e-14      -1.797728892716e-13       1.250792546550e-16       3.660550302145e-11       4.534299605351e-12      -7.478359739414e-15 
   59       2.229250757842e-10       2.511458149045e-14      -2.176745737046e-13       1.294573408533e-16       3.520814254743e-11       4.384085244096e-12      -7.770818971557e-15 
   60       2.261582580867e-10       2.644508427191e-14      -2.573622006124e-13       1.339084098675e-16       3.387992228227e-11       4.240272173498e-12      -7.994685268652e-15 
   61       2.294253017707e-10       2.781320664050e-14      -2.988526152459e-13       1.384322110579e-16       3.261114620882e-11       4.101759283832e-12      -8.149766103410e-15 
   62       2.327277049848e-10       2.921878172218e-14      -3.421525326037e-13       1.430288498457e-16       3.140054383096e-11       3.968526446514e-12      -8.247081697214e-15 
   63       2.360661272295e-10       3.066168398967e-14      -3.872646579856e-13       1.476985682591e-16       3.024816620800e-11       3.840761271707e-12      -8.302465000603e-15 
   64       2.394404038174e-10       3.214175604148e-14      -4.341899194297e-13       1.524416664108e-16       2.915273912862e-11       3.718535127879e-12      -8.334287272606e-15 
   65       2.428494906513e-10       3.365880842590e-14      -4.829274570050e-13       1.572585052809e-16       2.811158771141e-11       3.601796043253e-12      -8.363563813248e-15 
   66       2.462914090023e-10       3.521261946478e-14      -5.334746121036e-13       1.621495094996e-16       2.712056100542e-11       3.490361607256e-12      -8.414059696061e-15 
   67       2.497631902885e-10       3.680293507753e-14      -5.858269167337e-13       1.671151701304e-16       2.617395659072e-11       3.383911871968e-12      -8.512395500588e-15 
   68       2.532619599913e-10       3.842937046655e-14      -6.399744044400e-13       1.721559969720e-16       2.526604039832e-11       3.282088741444e-12      -8.680864934019e-15 
   69       2.567885678827e-10       4.009109243448e-14      -6.958896989845e-13       1.772723580197e-16       2.439613231483e-11       3.184833392733e-12      -8.913961381438e-15 
   70       2.603445975547e-10       4.178707208396e-14      -7.535374817938e-13       1.824646123249e-16       2.356442033904e-11       3.092104787237e-12      -9.197263105624e-15 
   71       2.639312667445e-10       4.351617462268e-14      -8.128778538769e-13       1.877331590626e-16       2.277042255797e-11       3.003774935582e-12      -9.514221301174e-15 
   72       2.675494012469e-10       4.527715667730e-14      -8.738662310410e-13       1.930784390232e-16       2.201295254593e-11       2.919624522540e-12      -9.846079430309e-15 
   73       2.711994088263e-10       4.706866360747e-14      -9.364532391081e-13       1.985009361047e-16       2.129008476348e-11       2.839338531957e-12      -1.017179255869e-14 
   74       2.748812531294e-10       4.888922681973e-14      -1.000584609132e-12       2.040011788045e-16       2.059911995642e-11       2.762501871675e-12      -1.046794669123e-14 
   75       2.785944275966e-10       5.073726108155e-14      -1.066201072613e-12       2.095797417109e-16       1.993655055481e-11       2.688594998459e-12      -1.070867810788e-14 
   76       2.823383967414e-10       5.261120664020e-14      -1.133248513426e-12       2.152371130020e-16       1.929892937143e-11       2.617121742223e-12      -1.087144350384e-14 
   77       2.861140705536e-10       5.450999143694e-14      -1.201710792474e-12       2.209732657488e-16       1.868573506753e-11       2.548029360311e-12      -1.095572348656e-14 
   78       2.899225528131e-10       5.643264869144e-14      -1.271582746203e-12       2.267880107843e-16       1.809696878326e-11       2.481357489389e-12      -1.096759904708e-14 
   79       2.937646813390e-10       5.837817985297e-14      -1.342860564748e-12       2.326811225259e-16       1.753228137595e-11       2.417111104239e-12      -1.091424200527e-14 
   80       2.976410114855e-10       6.034555488374e-14      -1.415541897468e-12       2.386523377200e-16       1.699095734204e-11       2.355258853531e-12      -1.080395432110e-14 
   81       3.015517996378e-10       6.233371254214e-14      -1.489625958487e-12       2.447013541857e-16       1.647189873896e-11       2.295731395604e-12      -1.064620740594e-14 
   82       3.054969867081e-10       6.434156066614e-14      -1.565113632230e-12       2.508278295596e-16       1.597360910699e-11       2.238419734247e-12      -1.045168143387e-14 
   83       3.094761816315e-10       6.636797645650e-14      -1.642007578963e-12       2.570313800394e-16       1.549417739117e-11       2.183173554470e-12      -1.023230465296e-14 
   84       3.134889201970e-10       6.841175126417e-14      -1.720301411223e-12       2.633116399214e-16       1.503174109570e-11       2.129839525221e-12      -9.999327980680e-15 
   85       3.175355269915e-10       7.047141381485e-14      -1.799944930290e-12       2.696684543018e-16       1.458599918589e-11       2.078387148696e-12      -9.757095935932e-15 
   86       3.216163667528e-10       7.254537806195e-14      -1.880873293362e-12       2.761017161673e-16       1.415692168101e-11       2.028800819913e-12      -9.508310333522e-15 
   87       3.257315700382e-10       7.463199543720e-14      -1.963017353270e-12       2.826113082118e-16       1.374428481585e-11       1.981040736871e-12      -9.255909384014e-15 
   88       3.298810213479e-10       7.672955420116e-14      -2.046303580339e-12       2.891971026027e-16       1.334766301691e-11       1.935041908044e-12      -9.003073984595e-15 
   89       3.340643472483e-10       7.883627879394e-14      -2.130653984235e-12       2.958589607464e-16       1.296642087865e-11       1.890713159869e-12      -8.753234009926e-15 
   90       3.382809044956e-10       8.095032918568e-14      -2.215986035832e-12       3.025967330546e-16       1.259970513966e-11       1.847936144241e-12      -8.510074603006e-15 
   91       3.425297681592e-10       8.306980022727e-14      -2.302212589060e-12       3.094102587102e-16       1.224643665890e-11       1.806564346001e-12      -8.277542466029e-15 
   92       3.468097197453e-10       8.519272100085e-14      -2.389241802763e-12       3.162993654330e-16       1.190530239192e-11       1.766422090430e-12      -8.059852151237e-15 
   93       3.511196157244e-10       8.731712862016e-14      -2.476985490226e-12       3.232640280719e-16       1.157506600602e-11       1.727347412176e-12      -7.860637685928e-15 
   94       3.554595823140e-10       8.944130373869e-14      -2.565385773959e-12       3.303048721736e-16       1.125557059303e-11       1.689330193117e-12      -7.680247826463e-15 
   95       3.598299792691e-10       9.156356942609e-14      -2.654392313966e-12       3.374227460703e-16       1.094687263115e-11       1.652393062062e-12      -7.518053748600e-15 
   96       3.642310289234e-10       9.368222024211e-14      -2.743954274312e-12       3.446185707219e-16       1.064893318230e-11       1.616548999300e-12      -7.373262099115e-15 
   97       3.686628095341e-10       9.579552260914e-14      -2.834020360670e-12       3.518933416622e-16       1.036161424224e-11       1.581800946161e-12      -7.244909554806e-15 
   98       3.731252486279e-10       9.790171518478e-14      -2.924538857855e-12       3.592481309450e-16       1.008467509068e-11       1.548141414596e-12      -7.131857381493e-15 
   99       3.776181163454e-10       9.999900923439e-14      -3.015457667373e-12       3.666840890904e-16       9.817768641406e-12       1.515552096739e-12      -7.032785993013e-15 
  100       3.821410187866e-10       1.020855890037e-13      -3.106724344954e-12       3.742024470306e-16       9.560437792404e-12       1.484003474481e-12      -6.946189510226e-15 
  101       3.866933913562e-10       1.041596120913e-13      -3.198286138102e-12       3.818045180561e-16       9.312111775954e-12       1.453454429040e-12      -6.870370320009e-15 
  102       3.912744921088e-10       1.062192098211e-13      -3.290090023630e-12       3.894916997621e-16       9.072102508767e-12       1.423851850528e-12      -6.803433634260e-15 
  103       3.958833950938e-10       1.082624876154e-13      -3.382082745202e-12       3.972654759942e-16       8.839600942095e-12       1.395130247527e-12      -6.743282048897e-15 
  104       4.005191896957e-10       1.102875541749e-13      -3.474208519595e-12       4.051272084099e-16       8.613859909408e-12       1.367227089119e-12      -6.687962480524e-15 
  105       4.051816236551e-10       1.122926127080e-13      -3.566401721728e-12       4.130774749029e-16       8.394778661114e-12       1.340132032243e-12      -6.636772070398e-15 
  106       4.098705349082e-10       1.142758827777e-13      -3.658593276874e-12       4.211166450216e-16       8.182390855126e-12       1.313843647322e-12      -6.589292223848e-15 
  107       4.145856490108e-10       1.162355732742e-13      -3.750712915480e-12       4.292450820118e-16       7.976683529358e-12       1.288354064703e-12      -6.545048023267e-15 
